Desplacment,Force
0.0,0.0
6.620647504278302e-07,0.06620647473259395
2.3242066655741084e-06,0.2324206531375103
4.405043222008301e-06,0.4405042308367447
6.442221306778821e-06,0.644221844897915
8.12623591671756e-06,0.8126230180930756
9.346436326693666e-06,0.9346427599738318
1.0241069159370577e-05,1.0241057678881351
1.1115622563056291e-05,1.111560788306608
1.2428949480849621e-05,1.2428928958481111
1.470613986623345e-05,1.4706105870850723
1.835263303750757e-05,1.8352566965377335
2.350598108855179e-05,2.350584226694243
3.0037446648738723e-05,3.003715697511201
3.766924234979788e-05,3.7668671032191727
4.592654969321332e-05,4.59255143020673
5.4197807356016036e-05,5.419610577205523
6.188857154813365e-05,6.188603796895032
6.856530199690809e-05,6.856185682193693
7.397495450120771e-05,7.397062789074592
7.793240982091959e-05,7.792735105550378
8.048532669492503e-05,8.047975434943554
8.189967139747913e-05,8.189380011385335
8.25701131825928e-05,8.256409653479938
8.284486661509781e-05,8.283878970939035
8.30463581054689e-05,8.304023675462263
8.357696025161118e-05,8.3570720824675
8.463757573141143e-05,8.463109575222923
8.619996475094255e-05,8.619311927424445
8.788467932939803e-05,8.78774246159176
8.89534255254077e-05,8.894590293018782
8.861829857182492e-05,8.861077597660504
8.635008707362004e-05,8.634256447840016
8.190003832462793e-05,8.189251572940806
7.523688959384929e-05,7.5229366998629414
6.660253255913055e-05,6.659500996391068
5.6322539132556856e-05,5.631501653733697
4.491849629375764e-05,4.491097369853775
3.307572103733242e-05,3.3068198442112537
2.1485156683664878e-05,2.1477634088445
1.0796480071327817e-05,1.078895747610794
1.3477726167802122e-06,0.13402500215603363
-6.8933577929017565e-06,-0.6900876928455469
-1.4231912378276354e-05,-1.4239404164903522
-2.0819186496311617e-05,-2.0826612584484083
-2.6963850221179684e-05,-2.697116314905555
-3.315891917539962e-05,-3.316605185993935
-4.005454832599715e-05,-4.006138371051601
-4.870883550264976e-05,-4.871512236846008
-5.976060415089524e-05,-5.976584478396596
-7.309765465169878e-05,-7.310100146882948
-8.780920152066958e-05,-8.78094862127981
-0.0001023158441855579,-10.231191717901105
-0.00011497691421328139,-11.496819001809142
-0.00012474290724529132,-12.472968246328948
-0.00013121119029138194,-13.11945685708074
-0.00013456789303114078,-13.454937090822886
-0.00013565411525988567,-13.563495747833144
-0.00013577426903600104,-13.575504031175033
-0.00013629250516907878,-13.627296902066542
-0.00013793693555347428,-13.791640833491126
-0.0001411362706311788,-14.111374648058552
-0.00014610180453609542,-14.607599694629203
-0.00015291783652466258,-15.28871443961444
-0.0001617288792588261,-16.169119548792775
-0.00017249429756214122,-17.24469752093
-0.00018492692886442428,-18.48668768560595
-0.00019845780373087501,-19.83818133153725
-0.00021237476737368864,-21.227995542822917
-0.0002256894107104365,-22.55741297900595
-0.00023704524968105778,-23.691049395008093
-0.0002451427282993608,-24.49928967359007
-0.0002489889392757248,-24.883158876890093
-0.0002480777784668599,-24.792042796003603
-0.00024236389880112608,-24.22065482943022
-0.0002323988702966346,-23.224151978981073
-0.00021947232147788727,-21.93149709710634
-0.00020480897734215635,-20.465162683533247
-0.00018886770844788443,-18.871035794106056
-0.00017174776557412442,-17.15904150673006
-0.00015386238742272,-15.370503691589613
-0.00013526573919833292,-13.510838869150906
-0.00011542234616426882,-11.526499565744496
-9.347066140456847e-05,-9.33133108977446
-6.837546427807861e-05,-6.821811377125474
-3.9450779730707074e-05,-3.9293429223883205
-6.638663818011625e-06,-0.648131331118776
2.9461432658954685e-05,2.961851048768041
6.77246787725939e-05,6.787869054149282
0.0001068057160071149,10.69499913233196
0.00014543407891637303,14.555845432382709
0.0001828246436422617,18.291653683085364
0.00021903844089169694,21.908329079949983
0.00025466006041927026,25.464070470975887
0.00029051304483101255,29.040818137296142
0.00032735327972754273,32.713565798792196
0.00036563006717571153,36.52651938048197
0.00040536235633607874,40.480844397314875
0.0004461149039306975,44.53247213012591
0.000487107253591721,48.60318695268008
0.0005270889651306752,52.56853874950567
0.0005652203559441196,56.34540857164019
0.0006015392033402625,59.93791954612558
0.000636893030070016,63.43016553046475
0.0006727262580935019,66.96464689642184
0.0007106700640160263,70.70138234455489
0.000752338969024743,74.79756088924412
0.0007985548355651184,79.33114155930683
0.0008490414366667578,84.27148461758888
0.0009023777402279804,89.47606021267258
0.0009560368052726823,94.69609757333555
0.001007423430227368,99.67918021702036
0.0010545605727384439,104.23584746127267
0.0010965904392434972,108.28674872538592
0.0011338056112452644,111.86377593899849
0.0011674983204920473,115.09402874251882
0.001199502680961393,118.15499915354998
0.0012314923980141618,121.20717411735853
0.001264403495607437,124.33936248823493
0.0012980820188620496,127.53610574696272
0.001331327912521231,130.68317939323632
0.001362027931496489,133.58150542074455
0.0013875408183203872,135.98435349210783
0.001405715930757674,137.69287307173477
0.001416312419697315,138.68771827849667
0.00141998986897171,139.03275528880437
0.0014178789562908896,138.82166402072232
0.0014112438072125697,138.15814911289036
0.0014014957394059072,137.18334233222407
0.0013897351682863688,136.00728522027023
0.001376671107684849,134.7008791601183
0.0013627625318826586,133.31002157989926
0.0013482438895284347,131.85815734447687
0.0013338848675240821,130.4222551440416
0.0013212289606107674,129.15666445271012
0.0013123425395164207,128.26802234327545
0.0013084495445095596,127.87872284258935
0.0013111621875059013,128.1357545494455
0.0013226193746369054,129.22072848139973
0.0013450496177960017,131.34184923844936
0.0013805996085464913,134.6954387270772
0.0014299079222059924,139.3298885549868
0.0014914406267490972,145.08473753120398
0.0015616131758321512,151.60759334255027
0.0016354352301409289,158.42194879813655
0.001707388657154534,165.01501147269946
0.0017724358164241654,170.93243067374422
0.0018269256298375264,175.85726038111846
0.0018691487886495857,179.6528011886451
0.0018994085646214724,182.36166589687681
0.0019197338423905385,184.1758516579788
0.0019329793200247674,185.35578404258385
0.001941832147597726,186.14338164083446
0.0019484758099727155,186.73389596357904
0.001954641203937528,187.28148201886262
0.0019605574711506675,187.80656252134676
0.0019637904377862534,188.09333759549654
0.0019615353293112327,187.86782674799449
0.0019520937506145662,186.92366887832785
0.001935078738182856,185.2221676351568
0.001911161826912402,182.83047650811142
0.0018817672620030916,179.89102001718038
0.0018483405358447691,176.5483474013481
0.0018117416760174104,172.88846141861225
0.0017717167957979364,168.88597339666484
0.0017268323420882288,164.39752802569404
0.0016748307818493658,159.1973720018078
0.001612927372150462,153.0070310319174
0.001538376379185537,145.5519317354249
0.0014495190237558575,136.66619619245697
0.0013473223127242865,126.44652508929985
0.0012338298750387393,115.09728132074513
0.0011113283499193365,102.84712880880485
0.0009817999290856266,89.89428672543384
0.0008466486009542181,76.379153912293
0.0007065621840023642,62.37051221710761
0.0005615253411476588,47.86682793163707
0.00041140950678692113,32.8552444955633
0.0002563875902612137,17.353052842992557
9.713688145065735e-05,1.427981961936921
-6.545226431091558e-05,-14.827273109094845
-0.00022994076860295308,-31.24631374788696
-0.00039440953214696037,-47.60894523084354
-0.0005567776346297959,-63.681920770838495
-0.0007144423646040854,-79.18756164431669
-0.0008659847573705775,-93.97458376371779
-0.001011740500082973,-108.07020302715868
-0.0011535324915282132,-121.64662212426276
-0.0012938236728980727,-134.9324254608735
-0.0014348840935888498,-148.12955378692763
-0.001577917802675602,-161.33214537519805
-0.0017223956447022307,-174.4715589671045
-0.001865942024700049,-187.3182717780871
-0.0020045469180954437,-199.51526624175375
-0.002133388069807934,-210.6618952195159
-0.002247539645142893,-220.37806866428235
-0.002342804324823109,-228.3685543294965
-0.0024164666094886496,-234.4718493762634
-0.00246759142882486,-238.66863245892733
-0.002497132684637892,-241.07886846654546
-0.0025074736038285194,-241.9200005829479
-0.0025020132818459454,-241.3739683846905
-0.00248465865810489,-239.63850601058493
-0.002458937675014246,-237.06640770152055
-0.0024274745287253007,-233.920093072626
-0.002392287979393079,-230.40143813940387
-0.002356532036399872,-226.82584384008314
-0.0023220890332075633,-223.38154352085226
-0.002288938840125397,-220.06652421263567
-0.0022555066413636705,-216.723304336463
-0.002219609376761729,-213.13357787626887
-0.002179090885978745,-209.08172879797044
-0.002132442870416293,-204.41692724172523
-0.0020796924750762884,-199.14188770772478
-0.002022711422324307,-193.44378243252666
-0.00196496208800378,-187.66884900047393
-0.0019110528243680308,-182.277922636899
-0.0018656496820616771,-177.7376084062637
-0.0018328348052140855,-174.45612072150453
-0.0018150193437037753,-172.67457457047348
-0.0018123779522961356,-172.41043542970954
-0.0018235146367760935,-173.41766903036014
-0.0018459842350820365,-175.4461010782546
-0.0018769231172589534,-178.23074455880797
-0.0019117491801926498,-181.3535464639349
-0.0019478748685005571,-184.5796138035703
-0.001985801156704872,-187.95174218129333
-0.002028546765071303,-191.73402736252788
-0.002080085629694031,-196.26813594980229
-0.0021437266996307755,-201.82667644366663
-0.0022209426927825493,-208.5099715004134
-0.002309514868618706,-216.0921473418909
-0.002403108586016046,-224.00439350670806
-0.0024918917938236643,-231.41313428046803
-0.0025636715137138137,-237.33277770892508
-0.0026066241207660596,-240.84463853899774
-0.0026113037713676327,-241.2258665342539
-0.002572743346816028,-237.36982407909343
-0.002491873352799366,-229.28282467742724
-0.0023736944829879417,-217.4649376962848
-0.0022254903372421284,-202.6445231217035
-0.002056048423944734,-185.700331791964
-0.0018787517332322415,-167.97066272071478
-0.001702929968536649,-150.38848625115554
-0.0015309535858152527,-133.1908479790159
-0.001357287381723432,-115.82422756983384
-0.001166614511397686,-96.75694053725924
-0.0009455656222365692,-74.65205162114754
-0.0006892375604712712,-49.01924544461773
-0.0004042492846056872,-20.52041785805933
-0.00010693245582971346,9.209730597312312
0.0001790262563733324,37.746104434265064
0.0004278602418270798,62.420265004898994
0.0006182962969978877,81.14201899601403
0.0007380914584379068,92.82643125835793
0.0007870059695943894,97.57393985574089
0.0007742901647863025,96.3023593749322
0.0007188361301253153,90.75695590883348
0.0006453215507723017,83.40549797353212
0.0005777142144208775,76.6447643383897
0.0005335910857843696,72.2324514747389
0.000520292572339856,70.90260013028754
0.0005341755615390086,72.26771236570117
0.0005628420314780456,75.08366475601109
0.0005904000593655337,77.78704667908876
0.0006003571962135604,78.7629067522703
0.0005791354749762623,76.64073462854047
0.0005194937365985304,70.67656079076728
0.00042207713426148987,60.93490055706324
0.0002943249348625074,48.15968061716499
0.00014814687725625534,33.541874856539785
-3.4194136869254162e-06,18.385245762221718
-0.00014905773618049495,3.8214135128647655
-0.00028136524515117345,-9.408647344429712
-0.0003975056400441778,-21.01429420624012
-0.0004984130382666067,-31.083768848955064
-0.0005871833768609539,-39.925895362638556
-0.0006667659563928956,-47.83617360658169
-0.0007382476952096787,-54.925103237620974
-0.0008004103783235698,-61.07559712517377
-0.0008508987331537768,-66.06018070334218
-0.0008862321463334408,-69.54232703711084
-0.0009030423243222237,-71.19709709094646
-0.0008996096495962347,-70.85382961834756
-0.0008774000516865218,-68.63286982737627
-0.0008410204295788466,-64.99490761660876
-0.0007977024104538973,-60.66310570411382
-0.0007558653913479336,-56.479403793517456
-0.0007233862015232272,-53.231484811046805
-0.0007061829495951252,-51.511159618236604
-0.0007069657977726621,-51.58879255820027
-0.0007248304998568142,-53.359840866322436
-0.0007544634085784721,-56.295174118056465
-0.0007889930760796446,-59.71163558989356
-0.0008217195043747389,-62.94555939475857
-0.0008475735823970275,-65.49740035536293
-0.0008637783898208255,-67.09545007817633
-0.0008695692366908894,-67.66625265922637
-0.0008656336577568038,-67.27269476581782
-0.0008534617522518497,-66.05550421532242
-0.0008359135912825354,-64.30068811839098
-0.0008147340045780019,-62.18272944793764
-0.0007898212190932663,-59.69145089946409
-0.0007600502849073173,-56.71435748086918
-0.0007247367348248598,-53.18300247262343
-0.0006841058571532343,-49.11991470546087
-0.0006389191740061106,-44.6012463907485
-0.0005925132602302241,-39.96065501315986
-0.0005510499016685642,-35.814319156993875
-0.0005223565492913529,-32.944983919272744
-0.0005138718421813601,-32.09651320827346
-0.0005311494242327859,-33.81846816442351
-0.0005764043329319987,-38.32567171635788
-0.0006477580185034931,-45.42196095072813
-0.000739303954393283,-54.504814169501714
-0.0008425488106000795,-64.71372877714356
-0.00094917524877019,-75.21157263512823
-0.0010508533572649895,-85.1726123828318
-0.0011400943312352817,-93.87034039260001
-0.0012109579442271092,-100.74420171240423
-0.0012596234237437843,-105.4468819508907
-0.0012846777000472117,-107.86200421673553
-0.001286949395374537,-108.08078164248836
-0.0012687777383289342,-106.2636159379281
-0.0012318353432527642,-102.5693764303111
-0.0011792578669717216,-97.31162880220683
-0.0011162372270003393,-91.00956480506859
-0.001048900077253073,-84.27584983034198
-0.0009829375139516973,-77.6795935002044
-0.0009233742148618825,-71.72326359122292
-0.0008759955895754832,-66.98540106258298
-0.0008429815556737046,-63.68399767240513
-0.0008215393916767157,-61.539781272706236
-0.0008043642783083425,-59.822269935868924
-0.0007817256393671094,-57.55840604174561
-0.0007434313815093947,-53.72898025597414
-0.0006809155282468799,-47.47739492972266
-0.000589868114343145,-38.372653539349166
-0.00047126800707116527,-26.512642812151196
-0.0003307891339321443,-12.464755498249092
-0.00017515709960618298,3.0983318409149416
-1.3713815868601803e-05,19.234321933001606
0.00014256470419491765,34.82279454472026
0.00028322357388678584,48.8066536686751
0.0004004239058288165,60.41156590163081
0.0004901990804681879,69.26550539311708
0.0005527841565418754,75.41709984283476
0.0005915556356547279,79.21870933151818
0.0006096414951202614,80.98950238724954
0.0006120801970863503,81.22814924652168
0.0006055590121182764,80.57603074971429
0.0005977450778797753,79.79463732586417
0.0005961484407194223,79.63497360982888
0.0006068746883263184,80.68515455704505
0.0006337880368407697,83.31757610189119
0.0006784066272722372,87.67332036726665
0.0007418711936321383,93.84979979013546
0.0008219577033524689,101.6099834511024
0.0009125676817806732,110.34078041868057
0.001004718129966768,119.16252699633039
0.0010882742882865014,127.10794479700756
0.0011534826958812317,133.27124200290996
0.0011913991744884123,136.83929366875208
0.0011973111208705234,137.38763850299569
0.0011718364569341792,134.84017210936128
0.0011206841013194006,129.72493654788343
0.001053118813943408,122.96840781028415
0.000979652985042551,115.62182492019843
0.0009099373810689318,108.65026452283652
0.0008506941670782937,102.72594312377271
0.0008056275971439652,98.21928613033988
0.0007738868772495892,95.04521414090227
0.0007504508280354291,92.70160921948627
0.0007283199942345132,90.48852583939467
0.0007008750990985453,87.74403632579788
0.0006634542216603869,84.00194858198203
0.0006133103255653059,78.98755897247393
0.0005515272507944664,72.80925149538999
0.00048282916034785424,65.93944245072876
0.00041404782375334176,59.061308791277526
0.00035219476930963077,52.87600334690642
0.0003022897532410901,47.885501740052355
0.00026612859625482885,44.26938604142622
0.000241837670463699,41.840293462313234
0.00022468989271637373,40.125515687580716
0.00020893394906397215,38.54992132234055
0.00019071504758619022,36.72803117456236
0.00016801317171036498,34.45784358697984
0.00014094982086012512,31.751508501955858
0.00011172065256598493,28.828591672541837
8.405453726617234e-05,26.061980142560575
6.228900633725838e-05,23.88542704966918
5.035214261842741e-05,22.691740677786083
5.035732852887467e-05,22.692258370840264
6.0597345750142664e-05,23.714407759323564
7.799677668867392e-05,25.450826401058915
9.942223518274667e-05,27.58833685355352
0.00012261434110125198,29.90116384790697
0.00014645669505487365,32.27774442044377
0.0001710490487611108,34.72783404588422
0.00019740509226299566,37.352121733281784
0.00022634399036139226,40.23164625625439
0.00025771319351924497,43.35053012164798
0.00029017115557715395,46.57476420444042
0.0003221420590803129,49.74752774731339
0.00035086488288446437,52.595172974818595
0.00037253497780269487,54.741759472668456
0.0003832958171605614,55.807093366096055
0.0003797542866797293,55.45294031801285
0.000360867726632874,53.56428431332731
0.00032881899374935926,50.35941102497584
0.00028837680103389874,46.31519175342979
0.00024570170211642546,42.04768186168246
0.0002072529861682631,38.20281026686622
0.0001792350182157287,35.40101347161278
0.00016526184939744928,34.00369658978484
0.00016542510789798137,34.01995994015393
0.00017665862455093744,35.138868305955036
0.00019396843597745863,36.86243668683914
0.00021185748425807667,38.642928611791156
0.0002258367157564715,40.03372250717943
0.00023357151887312103,40.803041927580516
0.00023529886259780294,40.9748256431296
0.00023369066282724236,40.81400566607354
0.0002328417152910986,40.72911091245916
0.0002375783775698999,41.20016072815155
0.0002524458259307243,42.678302224903774
0.000280543055161596,45.470086895388796
0.0003219622500500257,49.581305002641294
0.000375678244972667,54.90487911758354
0.00044079106692154296,61.344241689949534
0.0005169056749724253,68.85045417063925
0.0006042644551044723,77.4341134017898
0.0007034851429004251,87.1377377199071
0.0008150534824031015,97.9842544986535
0.0009386099262950347,109.9071279083166
0.0010723542482477181,122.6959104955265
0.0012128185999918304,135.98260285844535
0.0013549316101953736,149.26037570661683
0.0014927893218457445,161.96922965901234
0.0016205981365780763,173.5906220405097
0.0017333654056534737,183.70844455082562
0.0018275140164381247,192.05390540934985
0.0019016014656281551,198.5538020741772
0.0019576479211086254,203.43056814253683
0.0019984342705111455,206.95728511696566
0.002025873164460318,209.31921485593915
0.002040858172113911,210.60547147302216
0.0020436896924212462,210.84822790732446
0.0020336437865670414,209.84363732190397
0.0020080997554502654,207.28923421022637
0.0019655880161462366,203.03806027982347
0.001907084923685605,197.18775103376032
0.0018363341938322873,190.11267804842856
0.0017588686129508188,182.3661199602817
0.0016810848363835742,174.58774230355723
0.0016090065791289755,167.37991657809738
0.00154620726675505,161.09998534070485
0.001492673410036223,155.74659966882214
0.001445470891616139,151.02634782681375
0.0014018901996407588,146.66827862927573
0.001357420470352229,142.22130570042276
0.0013063088664627418,137.11014531147404
0.0012429094292156456,130.77020158676441
0.0011634005462500387,122.81931329020374
0.001066680388853941,113.14729755059396
0.0009543131522563609,101.91057389083595
0.0008313098664864086,89.61024531384072
0.0007054187405113023,77.02113271633009
0.0005849457770170849,64.97383636690834
0.0004741018808889815,53.88944675409801
0.0003762705307423224,44.10631173943211
0.0002949792209739725,35.97718076259712
0.00023389500747317087,29.868759412516955
0.00019822781287533224,26.302039952733093
0.0001902975871975724,25.50901738495711
0.00020757263383091982,27.232609680278937
0.00024281359410753512,30.74706539474843
0.00028584174052509193,35.03475051012497
0.00032488936486454735,38.922190514817125
0.0003488623645139565,41.30699375588774
0.00034958093942901423,41.378453617859094
0.00032322773358626334,38.743133033583995
0.0002713617579098053,33.5565354659382
0.0002003895613842327,26.459315813380936
